Voltaje22(V),Voltaje23(V),Voltaje25(V),Corriente25(A),Resistencia(Ω)
0.001009772,-0.000107179,1.7e-06,-0.098641,9.91e+37
0.000853633,-0.000120685,1.7e-06,-0.0662418,9.91e+37
0.000738411,-0.000136725,-5e-07,-0.0565458,9.91e+37
0.000642767,-0.000151581,4e-07,-0.0506416,9.91e+37
0.000558417,-0.000165506,-2e-07,-0.0458941,9.91e+37
0.000483507,-0.000178761,4e-07,-0.0418999,9.91e+37
0.000414405,-0.00019078,2.7e-06,-0.0384426,9.91e+37
0.000353817,-0.000202443,2.2e-06,-0.0353235,9.91e+37
0.000298599,-0.000212651,2e-07,-0.0325046,9.91e+37
0.000247941,-0.000222409,1e-06,-0.0298868,9.91e+37
0.000201811,-0.000231717,-6e-07,-0.0274793,9.91e+37
0.000159656,-0.000240187,3e-07,-0.0253002,9.91e+37
0.000120635,-0.000248374,-8e-07,-0.0232404,9.91e+37
8.1134e-05,-0.00025608,-1e-07,-0.0210051,9.91e+37
4.663e-05,-0.000262781,-3e-07,-0.0191031,9.91e+37
1.5706e-05,-0.000269523,7e-07,-0.0174232,9.91e+37
-9.722e-06,-0.000274643,1e-07,-0.0161161,9.91e+37
-3.2933e-05,-0.000279574,-2e-07,-0.0149595,9.91e+37
-5.4509e-05,-0.000284087,-8e-07,-0.0138021,9.91e+37
-7.5712e-05,-0.00028818,-1e-06,-0.0126078,9.91e+37
-9.503e-05,-0.000292253,1.5e-06,-0.0114791,9.91e+37
-0.000111819,-0.000295949,0.0,-0.0105293,9.91e+37
-0.000127359,-0.000299058,-2e-07,-0.0096433,9.91e+37
-0.000141452,-0.000302168,4.73e-05,-0.00884416,9.91e+37
-0.00015365,-0.000304691,-8e-07,-0.00811327,9.91e+37
-0.000165402,-0.000306597,1.1e-06,-0.00741438,9.91e+37
-0.000174988,-0.000308722,-7e-07,-0.00679436,9.91e+37
-0.000183294,-0.00031001,-1.5e-06,-0.00624772,9.91e+37
-0.00019185,-0.000311999,-3e-07,-0.00571831,9.91e+37
-0.000198313,-0.000312826,5e-07,-0.00532089,9.91e+37
-0.000204496,-0.000313758,7e-07,-0.0049123,9.91e+37
-0.000209877,-0.000314512,-5e-07,-0.00453341,9.91e+37
-0.000214353,-0.000314962,4e-07,-0.00422498,9.91e+37
-0.000218922,-0.00031558,0.0,-0.0039494,9.91e+37
-0.000222971,-0.000315998,1e-07,-0.00370719,9.91e+37
-0.000226947,-0.000317056,-3e-07,-0.00347459,9.91e+37
-0.000231579,-0.000317663,-2e-07,-0.0031937,9.91e+37
-0.000234899,-0.000318239,-1e-06,-0.00294884,9.91e+37
-0.000237085,-0.000318417,-1e-07,-0.00276794,9.91e+37
-0.000239167,-0.000318689,0.0,-0.00261678,9.91e+37
-0.000241582,-0.000319213,3e-07,-0.00247801,9.91e+37
-0.000243871,-0.000319872,-1.3e-06,-0.00235976,9.91e+37
-0.000246078,-0.000320385,5e-07,-0.00224883,9.91e+37
-0.000248347,-0.000320176,1.2e-06,-0.00211511,9.91e+37
-0.0002497,-0.000321233,9e-07,-0.00201925,9.91e+37
-0.000251272,-0.000321495,-3e-07,-0.00194164,9.91e+37
-0.000252365,-0.000321704,1.1e-06,-0.00185353,9.91e+37
-0.000253416,-0.000321977,-1e-07,-0.00176164,9.91e+37
-0.000254519,-0.000321893,1.1e-06,-0.00169944,9.91e+37
-0.000255519,-0.000321882,-9e-07,-0.00166039,9.91e+37
-0.000256757,-0.000322636,9e-07,-0.00160053,9.91e+37
-0.000257465,-0.00032294,-1e-06,-0.00154161,9.91e+37
-0.000258527,-0.000323254,-6e-07,-0.00151539,9.91e+37
-0.00025911,-0.000323589,1e-07,-0.00149323,9.91e+37
-0.000259921,-0.000323558,-7e-07,-0.00147704,9.91e+37
-0.000260452,-0.000323934,2e-07,-0.00146003,9.91e+37
-0.000261327,-0.000324353,-7e-07,-0.00142898,9.91e+37
-0.00026192,-0.000324542,-1.1e-06,-0.00141174,9.91e+37
-0.000263075,-0.000324971,-1.1e-06,-0.00141096,9.91e+37
-0.000263783,-0.000325097,-8e-07,-0.00140325,9.91e+37
-0.000264865,-0.000325746,1.4e-06,-0.00136384,9.91e+37
-0.000265896,-0.000325945,1.1e-06,-0.00133746,9.91e+37
-0.000266666,-0.00032652,5e-07,-0.00130668,9.91e+37
-0.000267613,-0.000326573,-1e-07,-0.00128964,9.91e+37
-0.000268186,-0.000326541,-3e-07,-0.0012803,9.91e+37
-0.000268821,-0.000326939,-6e-07,-0.00127257,9.91e+37
-0.000269237,-0.000326887,4e-07,-0.00128144,9.91e+37
-0.000270205,-0.00032763,2e-07,-0.00125603,9.91e+37
-0.000271267,-0.000328049,-7e-07,-0.00125736,9.91e+37
-0.000271954,-0.000328374,1.1e-06,-0.0012494,9.91e+37
-0.000272703,-0.000328541,-9e-07,-0.00125746,9.91e+37
-0.00027338,-0.000329138,0.0,-0.0012484,9.91e+37
-0.000274129,-0.000329839,-2e-07,-0.00124732,9.91e+37
-0.000274639,-0.00032985,7e-07,-0.00124147,9.91e+37
-0.000275638,-0.000330248,-1e-07,-0.00122805,9.91e+37
-0.000276367,-0.00033052,2e-07,-0.00122914,9.91e+37
-0.000277314,-0.000331075,1e-07,-0.00122336,9.91e+37
-0.000277793,-0.000331546,-8e-07,-0.00122641,9.91e+37
-0.000278927,-0.000332059,3e-07,-0.00121136,9.91e+37
-0.000279427,-0.000332352,1e-07,-0.00119175,9.91e+37
-0.000279365,-0.000332677,6e-07,-0.00117511,9.91e+37
-0.000279271,-0.000332645,-1.1e-06,-0.00116881,9.91e+37
-0.000278657,-0.000332247,-1e-07,-0.00115356,9.91e+37
-0.000278636,-0.000332499,3e-07,-0.00114195,9.91e+37
-0.000278521,-0.000331776,6e-07,-0.00115,9.91e+37
-0.000278802,-0.000331808,1e-07,-0.00111465,9.91e+37
-0.000279125,-0.000331902,-1e-06,-0.00109662,9.91e+37
-0.000278948,-0.000331441,-8e-07,-0.0010807,9.91e+37
-0.000279302,-0.000331263,-8e-07,-0.00107212,9.91e+37
-0.000279333,-0.000331588,5e-07,-0.00105609,9.91e+37
-0.000279677,-0.000331609,1.2e-06,-0.00105457,9.91e+37
-0.000279802,-0.000331881,-5e-07,-0.00106665,9.91e+37
-0.000279979,-0.000331912,8e-07,-0.00107255,9.91e+37
-0.000279646,-0.000332122,1.3e-06,-0.00109559,9.91e+37
-0.000280156,-0.000332373,2e-07,-0.00109093,9.91e+37
-0.000279927,-0.000332551,-5e-07,-0.00110393,9.91e+37
-0.000280426,-0.000332698,5e-07,-0.00108779,9.91e+37
-0.000280291,-0.000333001,4e-07,-0.00107878,9.91e+37
-0.000280124,-0.000333085,6e-07,-0.00109219,9.91e+37
-0.0002795,-0.000333043,1e-07,-0.00109453,9.91e+37
-0.000278802,-0.000332991,-1e-06,-0.00108415,9.91e+37
-0.00027848,-0.000332551,6e-07,-0.00106176,9.91e+37
-0.000277876,-0.000332206,-6e-07,-0.00101731,9.91e+37
-0.000277179,-0.00033208,1e-07,-0.00101018,9.91e+37
-0.000276398,-0.000331891,-1.6e-06,-0.00100155,9.91e+37
-0.00027518,-0.000331138,-1.1e-06,-0.00095468,9.91e+37
-0.000274171,-0.000330342,1e-07,-0.00092652,9.91e+37
-0.000273286,-0.000330038,-3e-07,-0.00092659,9.91e+37
-0.00027237,-0.000329525,-3e-07,-0.00090871,9.91e+37
-0.000272276,-0.0003294,-5e-07,-0.000890556,9.91e+37
-0.000271745,-0.000328541,1e-06,-0.000868236,9.91e+37
-0.000271392,-0.000328426,5e-07,-0.000846928,9.91e+37
-0.000270913,-0.000328238,-1.3e-06,-0.000855314,9.91e+37
-0.000270965,-0.000327798,-1.5e-06,-0.000851453,9.91e+37
-0.000270705,-0.000327798,-1.5e-06,-0.000873201,9.91e+37
-0.000271079,-0.000327976,1.3e-06,-0.000856971,9.91e+37
-0.000271631,-0.000328196,1.8e-06,-0.000832584,9.91e+37
-0.000272141,-0.000328133,1.5e-06,-0.000837198,9.91e+37
-0.000272287,-0.000328196,-9e-07,-0.000853667,9.91e+37
-0.000272599,-0.000328353,0.0,-0.000847926,9.91e+37
-0.000272412,-0.000328353,4e-07,-0.000834398,9.91e+37
-0.000272328,-0.000328007,1.4e-06,-0.000817552,9.91e+37
-0.00027212,-0.000327641,0.0,-0.000824784,9.91e+37
-0.000272786,-0.000327735,-1e-06,-0.000807248,9.91e+37
-0.000272422,-0.000327547,-5e-07,-0.000850989,9.91e+37
-0.000272755,-0.000328039,1e-07,-0.000845466,9.91e+37
-0.00027211,-0.000327348,7e-07,-0.000836956,9.91e+37
-0.000271714,-0.000327463,1.4e-06,-0.000855997,9.91e+37
-0.000271444,-0.000326751,4e-07,-0.00086406,9.91e+37
-0.000271142,-0.000326918,1.8e-06,-0.000865911,9.91e+37
-0.000270611,-0.000326646,3e-07,-0.000875614,9.91e+37
-0.00027007,-0.000326803,-2e-07,-0.000862035,9.91e+37
-0.00026932,-0.000325945,-4e-07,-0.000862553,9.91e+37
-0.000268685,-0.000326227,-1e-07,-0.000845988,9.91e+37
-0.000267811,-0.000325547,-4e-07,-0.000852575,9.91e+37
-0.000267384,-0.000324772,1e-07,-0.000846456,9.91e+37
-0.000266822,-0.000324793,-1.7e-06,-0.000847528,9.91e+37
-0.000266916,-0.000324301,-5e-07,-0.000836512,9.91e+37
-0.000266323,-0.000323798,0.0,-0.000855145,9.91e+37
-0.000266198,-0.000323872,7e-07,-0.000858016,9.91e+37
-0.000266042,-0.000323662,8e-07,-0.000863273,9.91e+37
-0.000266042,-0.00032362,1.1e-06,-0.000888462,9.91e+37
-0.000265969,-0.000323589,1.9e-06,-0.000882739,9.91e+37
-0.000265709,-0.000323526,4e-07,-0.000828322,9.91e+37
-0.000265781,-0.000323359,-2e-07,-0.000805946,9.91e+37
-0.000265636,-0.00032339,-1e-06,-0.000811113,9.91e+37
-0.000265355,-0.000323149,1e-06,-0.000825258,9.91e+37
-0.000265063,-0.000322647,2e-07,-0.000833218,9.91e+37
-0.000264407,-0.000322605,1.1e-06,-0.000849041,9.91e+37
-0.000264158,-0.000322605,-8e-07,-0.000850392,9.91e+37
-0.000263877,-0.000322668,2e-07,-0.000872679,9.91e+37
-0.000263148,-0.000322406,8e-07,-0.000874908,9.91e+37
-0.000263294,-0.000322291,-3e-07,-0.000868463,9.91e+37
-0.00026319,-0.000322793,5e-07,-0.000876959,9.91e+37
-0.000263065,-0.000322573,-8e-07,-0.000875776,9.91e+37
-0.000263148,-0.000323118,-1.4e-06,-0.000897087,9.91e+37
-0.00026345,-0.000323505,-3e-07,-0.000908916,9.91e+37
-0.000263627,-0.000323652,1.7e-06,-0.000900996,9.91e+37
-0.000263554,-0.000324678,5e-07,-0.00089287,9.91e+37
-0.0002632,-0.000324196,9e-07,-0.000883888,9.91e+37
-0.000262596,-0.000324573,1e-07,-0.00086317,9.91e+37
-0.000262295,-0.000324395,-1e-07,-0.000858273,9.91e+37
-0.000261451,-0.000324018,3e-07,-0.000850422,9.91e+37
-0.000260473,-0.000323934,0.0,-0.000837378,9.91e+37
-0.000259651,-0.000323463,2e-07,-0.000836129,9.91e+37
-0.000259182,-0.000323139,1.9e-06,-0.000831184,9.91e+37
-0.000258849,-0.000322898,-1.2e-06,-0.000832677,9.91e+37
-0.000258704,-0.000323118,2e-07,-0.000823751,9.91e+37
-0.000258412,-0.000323086,3e-07,-0.000812341,9.91e+37
-0.000258225,-0.000322814,0.0,-0.000808884,9.91e+37
-0.000257777,-0.000322971,-2e-07,-0.000796802,9.91e+37
-0.000257694,-0.000322636,1e-06,-0.000767038,9.91e+37
-0.000257153,-0.000322531,7e-07,-0.0007444,9.91e+37
-0.000256653,-0.000322249,-1.4e-06,-0.000731047,9.91e+37
-0.00025606,-0.000321401,0.0,-0.000737607,9.91e+37
-0.000255415,-0.000321055,3e-07,-0.000779967,9.91e+37
-0.000255165,-0.000321296,-6e-07,-0.000786476,9.91e+37
-0.000255102,-0.000320982,7e-07,-0.000790795,9.91e+37
-0.000255581,-0.00032139,6e-07,-0.000797351,9.91e+37
-0.000255852,-0.000320992,0.0,-0.000796705,9.91e+37
